Sensor Model:   DT-670-CU-1.4L
Serial Number:  D6068043
Data Format:    2      (Volts/Kelvin)
SetPoint Limit: 325.0      (Kelvin)
Temperature coefficient:  1 (Negative)
Number of Breakpoints:   106

No.   Units      Temperature (K)

  1  9.06000e-02   500.000
  2  .110239       491.000
  3  .136555       479.500
  4  .179181       461.500
  5  .265393       425.500
  6  .349522       390.000
  7  .452797       346.000
  8  .499413       325.000
  9  .542454       306.500
 10  .579439       290.500
 11  .613863       275.500
 12  .646875       261.000
 13  .678486       247.000
 14  .707587       234.000
 15  .735320       221.500
 16  .762793       209.000
 17  .788904       197.000
 18  .813667       185.500
 19  .836029       175.000
 20  .857094       165.000
 21  .876871       155.500
 22  .895380       146.500
 23  .912635       138.000
 24  .928655       130.000
 25  .943464       122.500
 26  .958055       115.000
 27  .971451       108.000
 28  .984628       101.000
 29  .994804        95.500
 30  1.00302        91.000
 31  1.01113        86.500
 32  1.01913        82.000
 33  1.02702        77.500
 34  1.03480        73.000
 35  1.04246        68.500
 36  1.05002        64.000
 37  1.05829        59.000
 38  1.06612        54.200
 39  1.07483        48.800
 40  1.08981        39.400
 41  1.09371        37.000
 42  1.09706        35.000
 43  1.10000        33.300
 44  1.10269        31.800
 45  1.10513        30.500
 46  1.10729        29.400
 47  1.10916        28.500
 48  1.11094        27.700
 49  1.11264        27.000
 50  1.11425        26.400
 51  1.11576        25.900
 52  1.11713        25.500
 53  1.11870        25.100
 54  1.12010        24.800
 55  1.12173        24.500
 56  1.12373        24.200
 57  1.12538        24.000
 58  1.12734        23.800
 59  1.12969        23.600
 60  1.13247        23.400
 61  1.13575        23.200
 62  1.14152        22.900
 63  1.16365        21.900
 64  1.17164        21.500
 65  1.18228        20.900
 66  1.19522        20.100
 67  1.20060        19.750
 68  1.21439        18.850
 69  1.22955        17.850
 70  1.24349        16.950
 71  1.25545        16.200
 72  1.26617        15.550
 73  1.27642        14.950
 74  1.28708        14.350
 75  1.29728        13.800
 76  1.30792        13.250
 77  1.31905        12.700
 78  1.33071        12.150
 79  1.34293        11.600
 80  1.35458        11.100
 81  1.36675        10.600
 82  1.37951        10.100
 83  1.39291         9.600
 84  1.40701         9.100
 85  1.42187         8.600
 86  1.43752         8.100
 87  1.45561         7.550
 88  1.47794         6.900
 89  1.52951         5.440
 90  1.55074         4.820
 91  1.56380         4.420
 92  1.57362         4.100
 93  1.58079         3.850
 94  1.58678         3.630
 95  1.59325         3.380
 96  1.60115         3.060
 97  1.60998         2.690
 98  1.61596         2.430
 99  1.62056         2.220
100  1.62426         2.040
101  1.62732         1.880
102  1.62979         1.740
103  1.63191         1.610
104  1.63370         1.490
105  1.63492         1.400
106  1.63725         1.201
